SOC[-] Voltage[V]
0.000000000000000000e+00 6.973584321321326870e-03
1.000000000000000048e-04 8.668226942346361763e-03
2.000000000000000096e-04 1.032674208664737144e-02
3.000000000000000279e-04 1.194932597217100365e-02
4.000000000000000192e-04 1.353617481686390789e-02
5.000000000000000104e-04 1.508748483867273019e-02
6.000000000000000559e-04 1.660345225554411830e-02
6.999999999999999929e-04 1.808427328542471652e-02
8.000000000000000383e-04 1.953014414626117606e-02
9.000000000000000838e-04 2.094126105600014470e-02
1.000000000000000021e-03 2.231782023258826325e-02
1.100000000000000066e-03 2.366001789397218641e-02
1.200000000000000112e-03 2.496805025809855499e-02
1.300000000000000157e-03 2.624211354291402370e-02
1.399999999999999986e-03 2.748240396636524030e-02
1.500000000000000031e-03 2.868911774639883866e-02
1.600000000000000077e-03 2.986245110096148042e-02
1.700000000000000122e-03 3.100260024799980640e-02
1.800000000000000168e-03 3.210976140546046437e-02
1.899999999999999996e-03 3.318413079129010901e-02
2.000000000000000042e-03 3.422590462343537421e-02
2.100000000000000304e-03 3.523527911984291466e-02
2.200000000000000133e-03 3.621245049845938507e-02
2.299999999999999961e-03 3.715761497723141238e-02
2.400000000000000223e-03 3.807096877410566516e-02
2.500000000000000052e-03 3.895270810702877728e-02
2.600000000000000314e-03 3.980302919394741040e-02
2.700000000000000143e-03 4.062212825280819839e-02
2.799999999999999972e-03 4.141020150155778207e-02
2.900000000000000234e-03 4.216744515814283001e-02
3.000000000000000062e-03 4.289405544050997610e-02
3.100000000000000325e-03 4.359022856660586809e-02
3.200000000000000153e-03 4.425616075437715374e-02
3.299999999999999982e-03 4.489204822177049470e-02
3.400000000000000244e-03 4.549808718673251096e-02
3.500000000000000073e-03 4.607447386720987109e-02
3.600000000000000335e-03 4.662140448114921593e-02
3.700000000000000164e-03 4.713907524649717934e-02
3.799999999999999992e-03 4.762768238120044378e-02
3.900000000000000255e-03 4.808742210320562233e-02
4.000000000000000083e-03 4.851849063045937660e-02
4.100000000000000346e-03 4.892108418090835437e-02
4.200000000000000608e-03 4.929539897249918950e-02
4.300000000000000003e-03 4.964163122317855753e-02
4.400000000000000265e-03 4.995997715089307151e-02
4.500000000000000527e-03 5.025063297359511766e-02
4.599999999999999922e-03 5.041872748511401492e-02
4.700000000000000185e-03 5.057207296543964059e-02
4.800000000000000447e-03 5.071428602574051120e-02
4.899999999999999842e-03 5.084444548498447125e-02
5.000000000000000104e-03 5.095414440185105226e-02
5.100000000000000366e-03 5.104931918006396646e-02
5.200000000000000629e-03 5.111256542419181231e-02
5.300000000000000024e-03 5.115800308286477110e-02
5.400000000000000286e-03 5.117977821059646604e-02
5.500000000000000548e-03 5.117675767799643310e-02
5.599999999999999943e-03 5.114888829699941464e-02
5.700000000000000205e-03 5.109606889227404081e-02
5.800000000000000468e-03 5.101742607856656758e-02
5.899999999999999863e-03 5.092033333434717313e-02
6.000000000000000125e-03 5.080236111675687227e-02
6.100000000000000387e-03 5.066160902408078232e-02
6.200000000000000649e-03 5.049846626913086917e-02
6.300000000000000044e-03 5.031419931305627230e-02
6.400000000000000307e-03 5.010814363847121422e-02
6.500000000000000569e-03 4.988070274321602937e-02
6.599999999999999964e-03 4.962428551356937861e-02
6.700000000000000226e-03 4.935644460540048600e-02
6.800000000000000488e-03 4.907002653733837788e-02
6.900000000000000751e-03 4.876610962216176848e-02
7.000000000000000146e-03 4.844526174767541105e-02
7.100000000000000408e-03 4.810873150994113973e-02
7.200000000000000670e-03 4.775738066632834178e-02
7.300000000000000065e-03 4.739279291341524925e-02
7.400000000000000328e-03 4.702430083860469068e-02
7.500000000000000590e-03 4.664632336604948581e-02
7.599999999999999985e-03 4.625889300430451739e-02
7.700000000000000247e-03 4.586319085460477396e-02
7.800000000000000509e-03 4.545951327515353191e-02
7.900000000000000772e-03 4.504676326773683626e-02
8.000000000000000167e-03 4.463335074854148793e-02
8.099999999999999561e-03 4.421550091522125081e-02
8.200000000000000691e-03 4.379477580737405756e-02
8.300000000000000086e-03 4.337156148220137897e-02
8.400000000000001216e-03 4.295589612059336898e-02
8.500000000000000611e-03 4.254126612506169136e-02
8.600000000000000006e-03 4.212967621948509461e-02
8.700000000000001135e-03 4.172185080390394124e-02
8.800000000000000530e-03 4.131911111296893147e-02
8.899999999999999925e-03 4.092277865984399882e-02
9.000000000000001055e-03 4.053196608153956937e-02
9.100000000000000450e-03 4.014846877785559903e-02
9.199999999999999845e-03 3.976393921162877515e-02
9.300000000000000974e-03 3.938736527584069808e-02
9.400000000000000369e-03 3.901786724224477060e-02
9.499999999999999764e-03 3.865973727897673018e-02
9.600000000000000894e-03 3.831200104315154314e-02
9.700000000000000289e-03 3.797525279921021291e-02
9.799999999999999684e-03 3.765102438989931938e-02
9.900000000000000813e-03 3.733801118643824413e-02
1.000000000000000021e-02 3.703757322862636508e-02
1.010000000000000134e-02 3.674916912508435080e-02
1.020000000000000073e-02 3.647234972603543429e-02
1.030000000000000013e-02 3.620745112659683879e-02
1.040000000000000126e-02 3.595488994704830465e-02
1.050000000000000065e-02 3.571398083651355221e-02
1.060000000000000005e-02 3.548431244782718902e-02
1.070000000000000118e-02 3.526658550693252681e-02
1.080000000000000057e-02 3.505121966141348799e-02
1.089999999999999997e-02 3.485286507287308627e-02
1.100000000000000110e-02 3.466692543308348695e-02
1.110000000000000049e-02 3.449093326909276336e-02
1.119999999999999989e-02 3.432454527455411353e-02
1.130000000000000102e-02 3.416753266942507833e-02
1.140000000000000041e-02 3.401978087960984970e-02
1.149999999999999981e-02 3.388094157895197439e-02
1.160000000000000094e-02 3.375075588039897628e-02
1.170000000000000033e-02 3.362883032999142152e-02
1.179999999999999973e-02 3.351489231200400348e-02
1.190000000000000085e-02 3.340808159976062230e-02
1.200000000000000025e-02 3.330719688658644040e-02
1.210000000000000138e-02 3.321196613388677221e-02
1.220000000000000077e-02 3.312249593945025550e-02
1.230000000000000017e-02 3.303783044585240081e-02
1.240000000000000130e-02 3.295048247044318757e-02
1.250000000000000069e-02 3.286721404382620532e-02
1.260000000000000009e-02 3.278932839258252158e-02
1.270000000000000122e-02 3.271998471673370767e-02
1.280000000000000061e-02 3.265255275585344369e-02
1.290000000000000001e-02 3.258647954111326683e-02
1.300000000000000114e-02 3.252158130871794089e-02
1.310000000000000053e-02 3.245772476690059194e-02
1.319999999999999993e-02 3.239426796941253378e-02
1.330000000000000106e-02 3.233097394364409932e-02
1.340000000000000045e-02 3.226727347990127059e-02
1.349999999999999985e-02 3.221188827017306550e-02
1.360000000000000098e-02 3.215760311969307478e-02
1.370000000000000037e-02 3.210345731113595918e-02
1.380000000000000150e-02 3.205040656552199385e-02
1.390000000000000090e-02 3.199795285152133573e-02
1.400000000000000029e-02 3.194728110669781823e-02
1.410000000000000142e-02 3.189777674897175536e-02
1.420000000000000082e-02 3.184115355897795124e-02
1.430000000000000021e-02 3.178465477034465858e-02
1.440000000000000134e-02 3.172753004162465890e-02
1.450000000000000074e-02 3.167032498219033571e-02
1.460000000000000013e-02 3.161288864705944640e-02
1.470000000000000126e-02 3.155442879075538026e-02
1.480000000000000066e-02 3.149598814429247634e-02
1.490000000000000005e-02 3.143777758418697665e-02
1.500000000000000118e-02 3.137963082425877098e-02
1.510000000000000057e-02 3.132074110710662135e-02
1.519999999999999997e-02 3.126149796602480796e-02
1.530000000000000110e-02 3.120201322457494264e-02
1.540000000000000049e-02 3.114216999211428735e-02
1.549999999999999989e-02 3.108272408008800475e-02
1.560000000000000102e-02 3.102360546837930333e-02
1.570000000000000215e-02 3.096422011016931528e-02
1.580000000000000154e-02 3.090489729705497846e-02
1.590000000000000094e-02 3.084529504049805804e-02
1.600000000000000033e-02 3.078501048728914460e-02
1.609999999999999973e-02 3.072452280965821264e-02
1.619999999999999912e-02 3.066396089640729614e-02
1.630000000000000199e-02 3.060428928683883026e-02
1.640000000000000138e-02 3.054123000273500574e-02
1.650000000000000078e-02 3.047468588175156201e-02
1.660000000000000017e-02 3.040857304177353379e-02
1.669999999999999957e-02 3.034381430748882280e-02
1.680000000000000243e-02 3.028079548934168100e-02
1.690000000000000183e-02 3.021932084688395970e-02
1.700000000000000122e-02 3.015498819317114984e-02
1.710000000000000062e-02 3.008625866819956626e-02
1.720000000000000001e-02 3.001759706548561696e-02
1.729999999999999941e-02 2.994883371661240593e-02
1.740000000000000227e-02 2.987985141651186560e-02
1.750000000000000167e-02 2.981126409666249102e-02
1.760000000000000106e-02 2.974312607683435652e-02
1.770000000000000046e-02 2.967513682099588712e-02
1.779999999999999985e-02 2.960696660878135017e-02
1.789999999999999925e-02 2.954346953223385697e-02
1.800000000000000211e-02 2.948242374850114020e-02
1.810000000000000150e-02 2.942061492067491249e-02
1.820000000000000090e-02 2.935771753189835367e-02
1.830000000000000029e-02 2.929449342167387768e-02
1.839999999999999969e-02 2.923023940391599601e-02
1.850000000000000255e-02 2.916683557413333322e-02
1.860000000000000195e-02 2.910936488249150217e-02
1.870000000000000134e-02 2.905236075585568636e-02
1.880000000000000074e-02 2.899561032949909620e-02
1.890000000000000013e-02 2.893895386499661937e-02
1.899999999999999953e-02 2.888281268448467110e-02
1.910000000000000239e-02 2.882702533547073717e-02
1.920000000000000179e-02 2.877135113502500563e-02
1.930000000000000118e-02 2.871569518583440631e-02
1.940000000000000058e-02 2.866053564436565199e-02
1.949999999999999997e-02 2.860552427570945896e-02
1.959999999999999937e-02 2.855030530291203378e-02
1.970000000000000223e-02 2.849560589707573338e-02
1.980000000000000163e-02 2.844146677171514870e-02
1.990000000000000102e-02 2.838785683775022634e-02
2.000000000000000042e-02 2.833480623600204487e-02
2.009999999999999981e-02 2.828215588469253777e-02
2.020000000000000268e-02 2.822981164171413371e-02
2.030000000000000207e-02 2.817863503700926420e-02
2.040000000000000147e-02 2.812831703896453636e-02
2.050000000000000086e-02 2.807886051580255754e-02
2.060000000000000026e-02 2.802977842596883137e-02
2.069999999999999965e-02 2.798089174075032298e-02
2.080000000000000251e-02 2.793313370597253972e-02
2.090000000000000191e-02 2.788603515385673984e-02
2.100000000000000130e-02 2.783973780789895242e-02
2.110000000000000070e-02 2.779440882605866900e-02
2.120000000000000009e-02 2.775054243701084028e-02
2.129999999999999949e-02 2.770734384589633448e-02
2.140000000000000235e-02 2.766503802381715255e-02
2.150000000000000175e-02 2.762379547939488797e-02
2.160000000000000114e-02 2.758302629244962015e-02
2.170000000000000054e-02 2.754070187521829097e-02
2.179999999999999993e-02 2.749254908701755096e-02
2.189999999999999933e-02 2.744441916404963266e-02
2.200000000000000219e-02 2.739604331033607121e-02
2.210000000000000159e-02 2.734762999711336934e-02
2.220000000000000098e-02 2.729856485457747908e-02
2.230000000000000038e-02 2.724972525772842435e-02
2.239999999999999977e-02 2.720124290183578708e-02
2.250000000000000264e-02 2.715291310361359067e-02
2.260000000000000203e-02 2.710500673615171691e-02
2.270000000000000143e-02 2.705657430029956984e-02
2.280000000000000082e-02 2.700812614764788733e-02
2.290000000000000022e-02 2.695954170799326130e-02
2.299999999999999961e-02 2.691105396736934857e-02
2.310000000000000248e-02 2.686228700459250898e-02
2.320000000000000187e-02 2.681375019265402199e-02
2.330000000000000127e-02 2.676504581733354579e-02
2.340000000000000066e-02 2.671599887322708214e-02
2.350000000000000006e-02 2.666701797387830558e-02
2.359999999999999945e-02 2.661814180566256932e-02
2.370000000000000231e-02 2.656906269178906099e-02
2.380000000000000171e-02 2.652048188699041367e-02
2.390000000000000110e-02 2.647132162002160255e-02
2.400000000000000050e-02 2.642162828284384118e-02
2.409999999999999989e-02 2.637147182125522057e-02
2.420000000000000276e-02 2.632297300662718095e-02
2.430000000000000215e-02 2.628018280972347839e-02
2.440000000000000155e-02 2.623647434394168337e-02
2.450000000000000094e-02 2.619154275453688258e-02
2.460000000000000034e-02 2.614515218396074731e-02
2.469999999999999973e-02 2.609729326964264212e-02
2.480000000000000260e-02 2.604816573587858883e-02
2.490000000000000199e-02 2.599791678176313972e-02
2.500000000000000139e-02 2.594658336575764168e-02
2.510000000000000078e-02 2.589451657557714781e-02
2.520000000000000018e-02 2.584184996042162771e-02
2.529999999999999957e-02 2.578847167805886284e-02
2.540000000000000244e-02 2.573394415096623075e-02
2.550000000000000183e-02 2.568249730437205045e-02
2.560000000000000123e-02 2.563514588053196139e-02
2.570000000000000062e-02 2.558788829954477748e-02
2.580000000000000002e-02 2.554076219557717062e-02
2.590000000000000288e-02 2.549378525525191827e-02
2.600000000000000228e-02 2.544655821836569812e-02
2.610000000000000167e-02 2.539968682008213532e-02
2.620000000000000107e-02 2.535319796903959255e-02
2.630000000000000046e-02 2.530663074728266987e-02
2.639999999999999986e-02 2.526064779766949708e-02
2.650000000000000272e-02 2.521247319208204732e-02
2.660000000000000211e-02 2.516057598414226520e-02
2.670000000000000151e-02 2.510989369452458833e-02
2.680000000000000090e-02 2.506033135702450884e-02
2.690000000000000030e-02 2.501176395565896105e-02
2.699999999999999969e-02 2.495904159462681085e-02
2.710000000000000256e-02 2.490363681264836163e-02
2.720000000000000195e-02 2.484882196789865369e-02
2.730000000000000135e-02 2.479475259390779771e-02
2.740000000000000074e-02 2.474096866922676288e-02
2.750000000000000014e-02 2.468801574836961693e-02
2.760000000000000300e-02 2.463594559335258519e-02
2.770000000000000240e-02 2.458415138941072789e-02
2.780000000000000179e-02 2.453212171085503157e-02
2.790000000000000119e-02 2.448081112093939207e-02
2.800000000000000058e-02 2.442988972268686845e-02
2.809999999999999998e-02 2.437910985585434176e-02
2.820000000000000284e-02 2.432842025122467985e-02
2.830000000000000224e-02 2.427823500128676107e-02
2.840000000000000163e-02 2.422876189020586185e-02
2.850000000000000103e-02 2.417988733568338100e-02
2.860000000000000042e-02 2.413185517467017482e-02
2.869999999999999982e-02 2.408502789174849293e-02
2.880000000000000268e-02 2.403873427085280803e-02
2.890000000000000208e-02 2.399303314776905435e-02
2.900000000000000147e-02 2.394771436158596445e-02
2.910000000000000087e-02 2.390308774367377181e-02
2.920000000000000026e-02 2.385967151877923728e-02
2.930000000000000313e-02 2.381758556087867906e-02
2.940000000000000252e-02 2.377589185364379493e-02
2.950000000000000192e-02 2.373443553966972028e-02
2.960000000000000131e-02 2.369344979487104236e-02
2.970000000000000070e-02 2.365349923958686221e-02
2.980000000000000010e-02 2.361457621081903407e-02
2.990000000000000296e-02 2.357600553904604448e-02
3.000000000000000236e-02 2.353803226235581456e-02
3.010000000000000175e-02 2.350069161088126288e-02
3.020000000000000115e-02 2.346417431976652312e-02
3.030000000000000054e-02 2.342762736732800777e-02
3.039999999999999994e-02 2.339182992919623325e-02
3.050000000000000280e-02 2.335669802325862632e-02
3.060000000000000220e-02 2.332165752492667068e-02
3.070000000000000159e-02 2.328766468125598177e-02
3.080000000000000099e-02 2.325394823554326890e-02
3.090000000000000038e-02 2.322066628042511807e-02
3.099999999999999978e-02 2.318798346301116295e-02
3.110000000000000264e-02 2.315539387575362221e-02
3.120000000000000204e-02 2.312348785064179124e-02
3.130000000000000143e-02 2.309251251838035854e-02
3.140000000000000430e-02 2.306167000303544976e-02
3.150000000000000022e-02 2.303145593943596234e-02
3.160000000000000309e-02 2.300206079262998027e-02
3.169999999999999901e-02 2.297321732426040389e-02
3.180000000000000188e-02 2.294503810602014499e-02
3.190000000000000474e-02 2.291743983510008756e-02
3.200000000000000067e-02 2.289027135406488181e-02
3.210000000000000353e-02 2.286349661853138981e-02
3.219999999999999946e-02 2.283714909579553920e-02
3.230000000000000232e-02 2.281114122885839410e-02
3.239999999999999825e-02 2.278586625529388510e-02
3.250000000000000111e-02 2.276111041696088008e-02
3.260000000000000397e-02 2.273676421211106094e-02
3.269999999999999990e-02 2.271300607739779043e-02
3.280000000000000276e-02 2.269013814609989119e-02
3.289999999999999869e-02 2.266755633315527610e-02
3.300000000000000155e-02 2.264533220481362505e-02
3.310000000000000442e-02 2.262370240344235145e-02
3.320000000000000034e-02 2.260255549678900217e-02
3.330000000000000321e-02 2.258118586721792262e-02
3.339999999999999913e-02 2.255893289781593994e-02
3.350000000000000200e-02 2.253651821643658931e-02
3.360000000000000486e-02 2.251280647701455959e-02
3.370000000000000079e-02 2.248796511357231687e-02
3.380000000000000365e-02 2.246195926729377748e-02
3.389999999999999958e-02 2.243493061231364299e-02
3.400000000000000244e-02 2.240671177352058716e-02
3.409999999999999837e-02 2.237708654959982488e-02
3.420000000000000123e-02 2.234593399086004864e-02
3.430000000000000410e-02 2.231326199928367754e-02
3.440000000000000002e-02 2.227931062286850339e-02
3.450000000000000289e-02 2.224396590493940909e-02
3.459999999999999881e-02 2.220696901810671406e-02
3.470000000000000168e-02 2.216882432039808323e-02
3.480000000000000454e-02 2.212956899007990572e-02
3.490000000000000047e-02 2.208903732553890720e-02
3.500000000000000333e-02 2.204707207266848323e-02
3.509999999999999926e-02 2.200378506533847561e-02
3.520000000000000212e-02 2.195896190555223990e-02
3.530000000000000498e-02 2.191262596253727712e-02
3.540000000000000091e-02 2.186522769855232806e-02
3.550000000000000377e-02 2.181648171503840564e-02
3.559999999999999970e-02 2.176980019510630499e-02
3.570000000000000256e-02 2.172714496832395259e-02
3.579999999999999849e-02 2.168385977447977522e-02
3.590000000000000135e-02 2.163989624993721550e-02
3.600000000000000422e-02 2.159567080582883158e-02
3.610000000000000014e-02 2.155113514582192996e-02
3.620000000000000301e-02 2.150648219269173100e-02
3.629999999999999893e-02 2.146164505101343448e-02
3.640000000000000180e-02 2.141620086566109471e-02
3.650000000000000466e-02 2.137049807327044346e-02
3.660000000000000059e-02 2.132434824228814779e-02
3.670000000000000345e-02 2.127763203988649807e-02
3.679999999999999938e-02 2.123060885932654199e-02
3.690000000000000224e-02 2.118365652472208038e-02
3.700000000000000511e-02 2.113627444279298634e-02
3.710000000000000103e-02 2.108873875765735276e-02
3.720000000000000390e-02 2.104137381836588758e-02
3.729999999999999982e-02 2.099405488203417297e-02
3.740000000000000269e-02 2.094659616718945461e-02
3.749999999999999861e-02 2.089897750371555105e-02
3.760000000000000148e-02 2.085131481894012331e-02
3.770000000000000434e-02 2.080350599008962825e-02
3.780000000000000027e-02 2.075551913474482993e-02
3.790000000000000313e-02 2.070771160795310817e-02
3.799999999999999906e-02 2.066016008000326823e-02
3.810000000000000192e-02 2.061268102436556587e-02
3.820000000000000479e-02 2.056510483273297704e-02
3.830000000000000071e-02 2.051701199834409656e-02
3.840000000000000357e-02 2.046862153911340257e-02
3.849999999999999950e-02 2.042019841414623518e-02
3.860000000000000236e-02 2.037195753723819447e-02
3.870000000000000523e-02 2.032409717355583567e-02
3.880000000000000115e-02 2.027634738626541561e-02
3.890000000000000402e-02 2.022880248139324530e-02
3.899999999999999994e-02 2.018173766412449666e-02
